Time (s),Amplitude (mV)
0.000,0.12
0.002,0.15
0.004,0.18
0.006,0.20
0.008,0.22
0.010,0.25
0.012,0.30
0.014,0.28
0.016,0.25
0.018,0.20
0.020,0.15
0.022,0.10
0.024,0.05
0.026,0.00
0.028,-0.05
0.030,-0.10
0.032,-0.15
0.034,-0.20
0.036,-0.25
0.038,-0.30
0.040,-0.28